DFT, Frequency Response Magnitude
Numpoints, 8192
SamplingRate(Hz), 88200.000000
Frequency(Hz), Magnitude(dB)
5.38, 30.770721
10.77, 38.257111
16.15, 40.328354
21.53, 40.976395
26.92, 41.040623
32.30, 40.886936
37.68, 40.553440
43.07, 40.155109
48.45, 39.743046
53.83, 39.270168
59.22, 38.781693
64.60, 38.395699
69.98, 37.997639
75.37, 37.565819
80.75, 37.133690
86.13, 36.737030
91.52, 36.366810
96.90, 36.001293
102.28, 35.639320
107.67, 35.290531
113.05, 34.979683
118.43, 34.647652
123.82, 34.359688
129.20, 34.056984
134.58, 33.789696
139.97, 33.513279
145.35, 33.250004
150.73, 33.005577
156.12, 32.768406
161.50, 32.544064
166.88, 32.340866
172.27, 32.118057
177.65, 31.949152
183.03, 31.655115
188.42, 31.494085
193.80, 31.312263
199.18, 31.147558
204.57, 30.975065
209.95, 30.803303
215.33, 30.634579
220.72, 30.468372
226.10, 30.327333
231.48, 30.183762
236.87, 30.040600
242.25, 29.907473
247.63, 29.768116
253.02, 29.639715
258.40, 29.524040
263.78, 29.393332
269.17, 29.274672
274.55, 29.163235
279.93, 29.047365
285.31, 28.950037
290.70, 28.836424
296.08, 28.748104
301.46, 28.614477
306.85, 28.548357
312.23, 28.449314
317.61, 28.367002
323.00, 28.279636
328.38, 28.188150
333.76, 28.113182
339.15, 28.025972
344.53, 27.943527
349.91, 27.870081
355.30, 27.794394
360.68, 27.717857
366.06, 27.658129
371.45, 27.582264
376.83, 27.532919
382.21, 27.464708
387.60, 27.380569
392.98, 27.329781
398.36, 27.270777
403.75, 27.205107
409.13, 27.144081
414.51, 27.082451
419.90, 26.664019
425.28, 26.993731
430.66, 26.927174
436.05, 26.870735
441.43, 26.838926
446.81, 26.780113
452.20, 26.741249
457.58, 26.683466
462.96, 26.636255
468.35, 26.594904
473.73, 26.550287
479.11, 26.532516
484.50, 26.454084
489.88, 26.408409
495.26, 26.385874
500.65, 26.329741
506.03, 26.296982
511.41, 26.308306
516.80, 26.175478
522.18, 26.142366
527.56, 26.121094
532.95, 26.183596
538.33, 25.528957
543.71, 25.753290
549.10, 26.156361
554.48, 26.009501
559.86, 26.013649
565.25, 25.902767
570.63, 25.894138
576.01, 25.874786
581.40, 25.824156
586.78, 25.850248
592.16, 25.799454
597.55, 25.757568
602.93, 25.752773
608.31, 25.722965
613.70, 25.663893
619.08, 25.651033
624.46, 25.616692
629.85, 25.616732
635.23, 25.570251
640.61, 25.568373
646.00, 25.514469
651.38, 25.524904
656.76, 25.484026
662.15, 25.446117
667.53, 25.432976
672.91, 25.419357
678.30, 25.411156
683.68, 25.373371
689.06, 25.350370
694.45, 25.322113
699.83, 25.320728
705.21, 25.288973
710.60, 25.280254
715.98, 25.240057
721.36, 25.224092
726.75, 25.210312
732.13, 25.185659
737.51, 25.175135
742.90, 25.161200
748.28, 25.145161
753.66, 25.123072
759.05, 25.102045
764.43, 25.085428
769.81, 25.053444
775.20, 25.041800
780.58, 24.999866
785.96, 25.018179
791.35, 24.989882
796.73, 24.978550
802.11, 24.965715
807.50, 24.946070
812.88, 24.915998
818.26, 24.914743
823.65, 24.900412
829.03, 24.885340
834.41, 24.869678
839.79, 24.859083
845.18, 24.836386
850.56, 24.812067
855.94, 24.806452
861.33, 24.798254
866.71, 24.770061
872.09, 24.761553
877.48, 24.748650
882.86, 24.732613
888.24, 24.719688
893.63, 24.705059
899.01, 24.681114
904.39, 24.667000
909.78, 24.670183
915.16, 24.660791
920.54, 24.637693
925.93, 24.606112
931.31, 24.604248
936.69, 24.588079
942.08, 24.585602
947.46, 24.557402
952.84, 24.554680
958.23, 24.530519
963.61, 24.519873
968.99, 24.523668
974.38, 24.502918
979.76, 24.488880
985.14, 24.482634
990.53, 24.465254
995.91, 24.453552
1001.29, 24.434940
1006.68, 24.431526
1012.06, 24.417360
1017.44, 24.398842
1022.83, 24.395445
1028.21, 24.375427
1033.59, 24.356070
1038.98, 24.361115
1044.36, 24.344486
1049.74, 24.341059
1055.13, 24.315290
1060.51, 24.304022
1065.89, 24.282438
1071.28, 24.285276
1076.66, 24.264069
1082.04, 24.258327
1087.43, 24.245596
1092.81, 24.224970
1098.19, 24.216284
1103.58, 24.213802
1108.96, 24.198345
1114.34, 24.193451
1119.73, 24.176300
1125.11, 24.162916
1130.49, 24.148754
1135.88, 24.143717
1141.26, 24.130888
1146.64, 24.123833
1152.03, 24.111120
1157.41, 24.096039
1162.79, 24.091572
1168.18, 24.083094
1173.56, 24.066843
1178.94, 24.047863
1184.33, 24.047909
1189.71, 24.038103
1195.09, 24.013247
1200.48, 24.007904
1205.86, 24.005842
1211.24, 23.983545
1216.63, 23.984835
1222.01, 23.972443
1227.39, 23.957321
1232.78, 23.949375
1238.16, 23.941708
1243.54, 23.934774
1248.93, 23.914223
1254.31, 23.904049
1259.69, 23.899839
1265.08, 23.883131
1270.46, 23.869379
1275.84, 23.859484
1281.23, 23.851751
1286.61, 23.836939
1291.99, 23.831846
1297.38, 23.821814
1302.76, 23.805475
1308.14, 23.804111
1313.53, 23.788790
1318.91, 23.786346
1324.29, 23.769207
1329.68, 23.758883
1335.06, 23.740318
1340.44, 23.736135
1345.83, 23.726372
1351.21, 23.717012
1356.59, 23.712141
1361.98, 23.701830
1367.36, 23.692469
1372.74, 23.667015
1378.13, 23.672241
1383.51, 23.654320
1388.89, 23.647036
1394.27, 23.630213
1399.66, 23.622923
1405.04, 23.618317
1410.42, 23.614058
1415.81, 23.597281
1421.19, 23.585911
1426.57, 23.572290
1431.96, 23.562250
1437.34, 23.556023
1442.72, 23.554363
1448.11, 23.540823
1453.49, 23.527803
1458.87, 23.514217
1464.26, 23.511894
1469.64, 23.496964
1475.02, 23.483770
1480.41, 23.476076
1485.79, 23.462294
1491.17, 23.466753
1496.56, 23.451994
1501.94, 23.442059
1507.32, 23.436264
1512.71, 23.407806
1518.09, 23.404352
1523.47, 23.401384
1528.86, 23.388536
1534.24, 23.379900
1539.62, 23.364014
1545.01, 23.358067
1550.39, 23.349573
1555.77, 23.337238
1561.16, 23.336018
1566.54, 23.316029
1571.92, 23.311617
1577.31, 23.292336
1582.69, 23.284273
1588.07, 23.275013
1593.46, 23.262470
1598.84, 23.255550
1604.22, 23.254303
1609.61, 23.235867
1614.99, 23.228226
1620.37, 23.181105
1625.76, 23.207287
1631.14, 23.197958
1636.52, 23.186081
1641.91, 23.179884
1647.29, 23.178827
1652.67, 23.169470
1658.06, 23.138865
1663.44, 23.141748
1668.82, 23.128578
1674.21, 23.123697
1679.59, 23.105412
1684.97, 23.095999
1690.36, 23.094427
1695.74, 23.081116
1701.12, 23.074091
1706.51, 23.063219
1711.89, 23.059587
1717.27, 23.048180
1722.66, 23.036469
1728.04, 23.026026
1733.42, 23.015898
1738.81, 23.009489
1744.19, 22.988899
1749.57, 22.982977
1754.96, 22.977755
1760.34, 22.967976
1765.72, 22.955587
1771.11, 22.945225
1776.49, 22.929985
1781.87, 22.918121
1787.26, 22.918480
1792.64, 22.905573
1798.02, 22.892456
1803.41, 22.890429
1808.79, 22.871580
1814.17, 22.866133
1819.56, 22.847176
1824.94, 22.840700
1830.32, 22.836454
1835.71, 22.823355
1841.09, 22.824011
1846.47, 22.802326
1851.86, 22.796402
1857.24, 22.784107
1862.62, 22.779236
1868.01, 22.771187
1873.39, 22.761610
1878.77, 22.750360
1884.16, 22.742374
1889.54, 22.730827
1894.92, 22.711237
1900.31, 22.710287
1905.69, 22.707684
1911.07, 22.682171
1916.46, 22.680437
1921.84, 22.669752
1927.22, 22.660608
1932.60, 22.651836
1937.99, 22.637508
1943.37, 22.636059
1948.75, 22.626423
1954.14, 22.606724
1959.52, 22.608995
1964.90, 22.591619
1970.29, 22.587360
1975.67, 22.577389
1981.05, 22.559351
1986.44, 22.553963
1991.82, 22.541075
1997.20, 22.539795
2002.59, 22.520098
2007.97, 22.517250
2013.35, 22.509712
2018.74, 22.492466
2024.12, 22.496498
2029.50, 22.469864
2034.89, 22.474522
2040.27, 22.458260
2045.65, 22.443174
2051.04, 22.444246
2056.42, 22.431362
2061.80, 22.413013
2067.19, 22.399776
2072.57, 22.407021
2077.95, 22.390560
2083.34, 22.381828
2088.72, 22.366295
2094.10, 22.365593
2099.49, 22.344095
2104.87, 22.345188
2110.25, 22.337696
2115.64, 22.316570
2121.02, 22.317495
2126.40, 22.298548
2131.79, 22.298115
2137.17, 22.277119
2142.55, 22.269024
2147.94, 22.262554
2153.32, 22.245115
2158.70, 22.235979
2164.09, 22.238731
2169.47, 22.224319
2174.85, 22.216986
2180.24, 22.207441
2185.62, 22.198154
2191.00, 22.180660
2196.39, 22.170395
2201.77, 22.172302
2207.15, 22.161381
2212.54, 22.143995
2217.92, 22.140541
2223.30, 22.132931
2228.69, 22.115396
2234.07, 22.116407
2239.45, 22.105915
2244.84, 22.085356
2250.22, 22.074926
2255.60, 22.081945
2260.99, 22.068619
2266.37, 22.050327
2271.75, 22.042112
2277.14, 22.020821
2282.52, 22.031076
2287.90, 22.008659
2293.29, 22.003788
2298.67, 21.995510
2304.05, 21.982439
2309.44, 21.977356
2314.82, 21.966093
2320.20, 21.953506
2325.59, 21.947794
2330.97, 21.932087
2336.35, 21.918648
2341.74, 21.918028
2347.12, 21.902132
2352.50, 21.894636
2357.89, 21.881409
2363.27, 21.871252
2368.65, 21.860956
2374.04, 21.853533
2379.42, 21.850431
2384.80, 21.836214
2390.19, 21.824097
2395.57, 21.817558
2400.95, 21.810793
2406.34, 21.807611
2411.72, 21.794050
2417.10, 21.779274
2422.49, 21.769741
2427.87, 21.764948
2433.25, 21.760502
2438.64, 21.741280
2444.02, 21.736649
2449.40, 21.719200
2454.79, 21.713022
2460.17, 21.715969
2465.55, 21.699312
2470.94, 21.687572
2476.32, 21.681723
2481.70, 21.664385
2487.08, 21.658993
2492.47, 21.649944
2497.85, 21.636347
2503.23, 21.629194
2508.62, 21.618174
2514.00, 21.601059
2519.38, 21.594990
2524.77, 21.604216
2530.15, 21.580919
2535.53, 21.568058
2540.92, 21.560009
2546.30, 21.548794
2551.68, 21.550434
2557.07, 21.535997
2562.45, 21.522562
2567.83, 21.515568
2573.22, 21.503458
2578.60, 21.486547
2583.98, 21.492300
2589.37, 21.480570
2594.75, 21.469414
2600.13, 21.457870
2605.52, 21.449783
2610.90, 21.435268
2616.28, 21.423557
2621.67, 21.415407
2627.05, 21.419067
2632.43, 21.399483
2637.82, 21.393698
2643.20, 21.377304
2648.58, 21.369192
2653.97, 21.363415
2659.35, 21.360973
2664.73, 21.337044
2670.12, 21.328325
2675.50, 21.330797
2680.88, 21.315462
2686.27, 21.305267
2691.65, 21.289225
2697.03, 21.290682
2702.42, 21.267637
2707.80, 21.265114
2713.18, 21.257231
2718.57, 21.246460
2723.95, 21.240812
2729.33, 21.227844
2734.72, 21.222412
2740.10, 21.208084
2745.48, 21.202724
2750.87, 21.198277
2756.25, 21.185778
2761.63, 21.174448
2767.02, 21.168060
2772.40, 21.155794
2777.78, 21.146372
2783.17, 21.128931
2788.55, 21.124405
2793.93, 21.117384
2799.32, 21.113207
2804.70, 21.096457
2810.08, 21.087250
2815.47, 21.074781
2820.85, 21.066225
2826.23, 21.058659
2831.62, 21.047731
2837.00, 21.043442
2842.38, 21.035637
2847.77, 21.030369
2853.15, 21.018513
2858.53, 21.010199
2863.92, 20.989025
2869.30, 20.991781
2874.68, 20.973209
2880.07, 20.963619
2885.45, 20.955755
2890.83, 20.945612
2896.22, 20.936468
2901.60, 20.924799
2906.98, 20.919323
2912.37, 20.910831
2917.75, 20.894754
2923.13, 20.891342
2928.52, 20.877909
2933.90, 20.878500
2939.28, 20.865648
2944.67, 20.857035
2950.05, 20.845043
2955.43, 20.834007
2960.82, 20.832552
2966.20, 20.816639
2971.58, 20.807980
2976.97, 20.797401
2982.35, 20.783352
2987.73, 20.775984
2993.12, 20.773523
2998.50, 20.761986
3003.88, 20.759392
3009.27, 20.743252
3014.65, 20.730762
3020.03, 20.730799
3025.42, 20.718136
3030.80, 20.712757
3036.18, 20.696167
3041.56, 20.683226
3046.95, 20.676222
3052.33, 20.675079
3057.71, 20.652437
3063.10, 20.649029
3068.48, 20.643719
3073.86, 20.632004
3079.25, 20.622061
3084.63, 20.619318
3090.01, 20.609623
3095.40, 20.601456
3100.78, 20.584843
3106.16, 20.576975
3111.55, 20.577774
3116.93, 20.563387
3122.31, 20.549553
3127.70, 20.541687
3133.08, 20.543041
3138.46, 20.520491
3143.85, 20.519772
3149.23, 20.498884
3154.61, 20.491203
3160.00, 20.488058
3165.38, 20.466694
3170.76, 20.466110
3176.15, 20.461382
3181.53, 20.448877
3186.91, 20.447248
3192.30, 20.434788
3197.68, 20.425663
3203.06, 20.411449
3208.45, 20.402996
3213.83, 20.393393
3219.21, 20.384304
3224.60, 20.377768
3229.98, 20.361904
3235.36, 20.353558
3240.75, 20.349592
3246.13, 20.339359
3251.51, 20.332020
3256.90, 20.315308
3262.28, 20.313263
3267.66, 20.308094
3273.05, 20.291805
3278.43, 20.277729
3283.81, 20.276440
3289.20, 20.264027
3294.58, 20.259762
3299.96, 20.250141
3305.35, 20.245523
3310.73, 20.238413
3316.11, 20.218481
3321.50, 20.218451
3326.88, 20.198227
3332.26, 20.186422
3337.65, 20.189098
3343.03, 20.174202
3348.41, 20.173067
3353.80, 20.157738
3359.18, 20.148069
3364.56, 20.140879
3369.95, 20.132860
3375.33, 20.123011
3380.71, 20.112598
3386.10, 20.108755
3391.48, 20.103565
3396.86, 20.095461
3402.25, 20.078512
3407.63, 20.072113
3413.01, 20.056150
3418.40, 20.060293
3423.78, 20.038746
3429.16, 20.039686
3434.55, 20.031242
3439.93, 20.014065
3445.31, 20.006985
3450.70, 20.003429
3456.08, 19.986834
3461.46, 19.982695
3466.85, 19.983398
3472.23, 19.960836
3477.61, 19.954710
3483.00, 19.938614
3488.38, 19.939743
3493.76, 19.922779
3499.15, 19.919682
3504.53, 19.912197
3509.91, 19.903427
3515.30, 19.889959
3520.68, 19.888525
3526.06, 19.875576
3531.45, 19.876122
3536.83, 19.863031
3542.21, 19.841034
3547.60, 19.834326
3552.98, 19.837769
3558.36, 19.831268
3563.75, 19.812811
3569.13, 19.807686
3574.51, 19.795845
3579.90, 19.794529
3585.28, 19.775154
3590.66, 19.767601
3596.04, 19.755966
3601.43, 19.748629
3606.81, 19.741928
3612.19, 19.729061
3617.58, 19.726742
3622.96, 19.723986
3628.34, 19.708935
3633.73, 19.696722
3639.11, 19.695690
3644.49, 19.685749
3649.88, 19.665863
3655.26, 19.663877
3660.64, 19.661821
3666.03, 19.646687
3671.41, 19.645117
3676.79, 19.628164
3682.18, 19.615143
3687.56, 19.618238
3692.94, 19.611124
3698.33, 19.601345
3703.71, 19.591516
3709.09, 19.575220
3714.48, 19.569391
3719.86, 19.559776
3725.24, 19.558647
3730.63, 19.544855
3736.01, 19.532169
3741.39, 19.526207
3746.78, 19.514393
3752.16, 19.508289
3757.54, 19.505157
3762.93, 19.491312
3768.31, 19.477512
3773.69, 19.473879
3779.08, 19.466068
3784.46, 19.445992
3789.84, 19.442556
3795.23, 19.436602
3800.61, 19.426479
3805.99, 19.420261
3811.38, 19.413324
3816.76, 19.411316
3822.14, 19.398579
3827.53, 19.389000
3832.91, 19.381180
3838.29, 19.367741
3843.68, 19.363758
3849.06, 19.350990
3854.44, 19.349937
3859.83, 19.347610
3865.21, 19.324383
3870.59, 19.312943
3875.98, 19.306114
3881.36, 19.301126
3886.74, 19.283989
3892.13, 19.291103
3897.51, 19.282740
3902.89, 19.276608
3908.28, 19.259270
3913.66, 19.256052
3919.04, 19.238604
3924.43, 19.225243
3929.81, 19.230068
3935.19, 19.218834
3940.58, 19.208988
3945.96, 19.198606
3951.34, 19.197735
3956.73, 19.185211
3962.11, 19.182138
3967.49, 19.169350
3972.88, 19.162445
3978.26, 19.146969
3983.64, 19.144201
3989.03, 19.135612
3994.41, 19.124584
3999.79, 19.112598
4005.18, 19.106651
4010.56, 19.094868
4015.94, 19.089993
4021.33, 19.092779
4026.71, 19.070766
4032.09, 19.064075
4037.48, 19.058886
4042.86, 19.052193
4048.24, 19.046940
4053.63, 19.030499
4059.01, 19.018612
4064.39, 19.015991
4069.78, 19.010777
4075.16, 18.995335
4080.54, 18.986376
4085.93, 18.989807
4091.31, 18.970116
4096.69, 18.964867
4102.08, 18.959484
4107.46, 18.950649
4112.84, 18.947067
4118.23, 18.931269
4123.61, 18.926874
4128.99, 18.922474
4134.38, 18.902201
4139.76, 18.906918
4145.14, 18.901405
4150.52, 18.893034
4155.91, 18.874079
4161.29, 18.870575
4166.67, 18.857861
4172.06, 18.856119
4177.44, 18.853249
4182.82, 18.838915
4188.21, 18.832033
4193.59, 18.813110
4198.97, 18.816717
4204.36, 18.800529
4209.74, 18.797434
4215.12, 18.778957
4220.51, 18.779249
4225.89, 18.770803
4231.27, 18.767357
4236.66, 18.755133
4242.04, 18.751629
4247.42, 18.735250
4252.81, 18.733021
4258.19, 18.721479
4263.57, 18.709665
4268.96, 18.703773
4274.34, 18.694290
4279.72, 18.687193
4285.11, 18.683376
4290.49, 18.671358
4295.87, 18.658098
4301.26, 18.660189
4306.64, 18.654152
4312.02, 18.638983
4317.41, 18.630901
4322.79, 18.619896
4328.17, 18.618107
4333.56, 18.606386
4338.94, 18.588709
4344.32, 18.590082
4349.71, 18.584427
4355.09, 18.576836
4360.47, 18.568249
4365.86, 18.560175
4371.24, 18.556828
4376.62, 18.544765
4382.01, 18.527859
4387.39, 18.529205
4392.77, 18.520378
4398.16, 18.507000
4403.54, 18.505306
4408.92, 18.498196
4414.31, 18.490089
4419.69, 18.477180
4425.07, 18.476448
4430.46, 18.467377
4435.84, 18.449375
4441.22, 18.452627
4446.61, 18.442924
4451.99, 18.432980
4457.37, 18.428879
4462.76, 18.412102
4468.14, 18.402435
4473.52, 18.401138
4478.91, 18.395683
4484.29, 18.384327
4489.67, 18.370094
4495.06, 18.370750
4500.44, 18.356281
4505.82, 18.352459
4511.21, 18.345871
4516.59, 18.333866
4521.97, 18.332882
4527.36, 18.323057
4532.74, 18.306183
4538.12, 18.302547
4543.51, 18.304804
4548.89, 18.290365
4554.27, 18.279369
4559.66, 18.265396
4565.04, 18.272713
4570.42, 18.254997
4575.81, 18.250011
4581.19, 18.239130
4586.57, 18.231922
4591.96, 18.228258
4597.34, 18.217772
4602.72, 18.206284
4608.11, 18.202560
4613.49, 18.195133
4618.87, 18.183653
4624.26, 18.179520
4629.64, 18.178610
4635.02, 18.168896
4640.41, 18.155319
4645.79, 18.143950
4651.17, 18.135010
4656.56, 18.124071
4661.94, 18.126905
4667.32, 18.120008
4672.71, 18.104412
4678.09, 18.104866
4683.47, 18.090313
4688.85, 18.090363
4694.24, 18.084211
4699.62, 18.071384
4705.00, 18.062967
4710.39, 18.047874
4715.77, 18.045029
4721.15, 18.040852
4726.54, 18.033493
4731.92, 18.032518
4737.30, 18.022255
4742.69, 18.006666
4748.07, 18.005873
4753.45, 17.995806
4758.84, 17.984854
4764.22, 17.973604
4769.60, 17.970808
4774.99, 17.964046
4780.37, 17.958118
4785.75, 17.938793
4791.14, 17.943733
4796.52, 17.934027
4801.90, 17.920145
4807.29, 17.915792
4812.67, 17.916592
4818.05, 17.910971
4823.44, 17.896845
4828.82, 17.888220
4834.20, 17.882565
4839.59, 17.864435
4844.97, 17.871218
4850.35, 17.860119
4855.74, 17.848331
4861.12, 17.842882
4866.50, 17.842426
4871.89, 17.832209
4877.27, 17.820328
4882.65, 17.814247
4888.04, 17.807281
4893.42, 17.792339
4898.80, 17.785330
4904.19, 17.773832
4909.57, 17.777136
4914.95, 17.769356
4920.34, 17.758003
4925.72, 17.757128
4931.10, 17.746069
4936.49, 17.733570
4941.87, 17.719351
4947.25, 17.726261
4952.64, 17.711157
4958.02, 17.709255
4963.40, 17.695713
4968.79, 17.693705
4974.17, 17.682148
4979.55, 17.673306
4984.94, 17.666729
4990.32, 17.665760
4995.70, 17.659590
5001.09, 17.642550
5006.47, 17.643295
5011.85, 17.631264
5017.24, 17.629526
5022.62, 17.609547
5028.00, 17.614382
5033.39, 17.601650
5038.77, 17.594006
5044.15, 17.586018
5049.54, 17.574162
5054.92, 17.572269
5060.30, 17.564899
5065.69, 17.554770
5071.07, 17.547056
5076.45, 17.547684
5081.84, 17.530325
5087.22, 17.526947
5092.60, 17.516632
5097.99, 17.510120
5103.37, 17.505728
5108.75, 17.502182
5114.14, 17.487782
5119.52, 17.484821
5124.90, 17.478071
5130.29, 17.465677
5135.67, 17.461370
5141.05, 17.457565
5146.44, 17.452593
5151.82, 17.446568
5157.20, 17.437876
5162.59, 17.421944
5167.97, 17.412720
5173.35, 17.412039
5178.74, 17.406870
5184.12, 17.395872
5189.50, 17.391981
5194.89, 17.383919
5200.27, 17.368174
5205.65, 17.366974
5211.04, 17.371159
5216.42, 17.354540
5221.80, 17.346571
5227.19, 17.330263
5232.57, 17.331375
5237.95, 17.322641
5243.33, 17.317883
5248.72, 17.306334
5254.10, 17.308615
5259.48, 17.296717
5264.87, 17.287630
5270.25, 17.275772
5275.63, 17.270649
5281.02, 17.260153
5286.40, 17.257813
5291.78, 17.250700
5297.17, 17.246540
5302.55, 17.250160
5307.93, 17.237637
5313.32, 17.212347
5318.70, 17.213264
5324.08, 17.211143
5329.47, 17.202305
5334.85, 17.194349
5340.23, 17.185387
5345.62, 17.180317
5351.00, 17.170633
5356.38, 17.169302
5361.77, 17.158077
5367.15, 17.153399
5372.53, 17.140785
5377.92, 17.138203
5383.30, 17.131994
5388.68, 17.123936
5394.07, 17.113756
5399.45, 17.109228
5404.83, 17.103645
5410.22, 17.098141
5415.60, 17.084421
5420.98, 17.087603
5426.37, 17.075369
5431.75, 17.062174
5437.13, 17.057747
5442.52, 17.055285
5447.90, 17.050312
5453.28, 17.038431
5458.67, 17.031002
5464.05, 17.019398
5469.43, 17.018013
5474.82, 17.004436
5480.20, 17.003815
5485.58, 16.994255
5490.97, 16.980984
5496.35, 16.979618
5501.73, 16.981968
5507.12, 16.964903
5512.50, 16.960175
5517.88, 16.952698
5523.27, 16.951164
5528.65, 16.938583
5534.03, 16.923714
5539.42, 16.914186
5544.80, 16.914875
5550.18, 16.914696
5555.57, 16.898493
5560.95, 16.908663
5566.33, 16.894207
5571.72, 16.880104
5577.10, 16.874010
5582.48, 16.870041
5587.87, 16.863781
5593.25, 16.846706
5598.63, 16.850512
5604.02, 16.840904
5609.40, 16.834375
5614.78, 16.823954
5620.17, 16.824802
5625.55, 16.811178
5630.93, 16.806831
5636.32, 16.800381
5641.70, 16.795010
5647.08, 16.793205
5652.47, 16.784647
5657.85, 16.770485
5663.23, 16.761156
5668.62, 16.754208
5674.00, 16.757792
5679.38, 16.748251
5684.77, 16.742485
5690.15, 16.737570
